# WavLow(micr), WavUpp(micr), WavC(micr), BinnedNoise(ppm), Npix
5.992664704673429377e-01 6.057245071738457387e-01 6.024954888205943382e-01 1.328190454341829785e+01 1.000000000000000000e+00
6.057245071738457387e-01 6.121825438803485397e-01 6.089535255270971392e-01 1.000000000000000000e+01 2.000000000000000000e+00
6.121825438803485397e-01 6.186405805868513408e-01 6.154115622335999403e-01 1.386320351866924661e+01 1.000000000000000000e+00
6.186405805868513408e-01 6.250986172933541418e-01 6.218695989401027413e-01 1.291835123660758988e+01 1.000000000000000000e+00
6.250986172933541418e-01 6.315566539998569429e-01 6.283276356466055423e-01 1.000000000000000000e+01 2.000000000000000000e+00
6.315566539998569429e-01 6.380146907063597439e-01 6.347856723531083434e-01 1.079871974452669825e+01 1.000000000000000000e+00
6.380146907063597439e-01 6.444727274128625449e-01 6.412437090596111444e-01 1.027037479102207485e+01 1.000000000000000000e+00
6.444727274128625449e-01 6.509307641193653460e-01 6.477017457661139455e-01 1.000000000000000000e+01 1.000000000000000000e+00
6.509307641193653460e-01 6.573888008258681470e-01 6.541597824726167465e-01 1.000000000000000000e+01 2.000000000000000000e+00
6.573888008258681470e-01 6.638468375323709481e-01 6.606178191791195475e-01 1.000000000000000000e+01 1.000000000000000000e+00
6.638468375323709481e-01 6.703048742388737491e-01 6.670758558856223486e-01 1.000000000000000000e+01 1.000000000000000000e+00
6.703048742388737491e-01 6.767629109453765501e-01 6.735338925921251496e-01 1.000000000000000000e+01 1.000000000000000000e+00
6.767629109453765501e-01 6.832209476518793512e-01 6.799919292986279507e-01 1.000000000000000000e+01 1.000000000000000000e+00
6.832209476518793512e-01 6.896789843583821522e-01 6.864499660051307517e-01 1.000000000000000000e+01 1.000000000000000000e+00
6.896789843583821522e-01 6.961370210648849532e-01 6.929080027116335527e-01 1.000000000000000000e+01 1.000000000000000000e+00
6.961370210648849532e-01 7.025950577713877543e-01 6.993660394181363538e-01 1.000000000000000000e+01 1.000000000000000000e+00
7.025950577713877543e-01 7.090530944778905553e-01 7.058240761246391548e-01 1.000000000000000000e+01 1.000000000000000000e+00
7.090530944778905553e-01 7.155111311843933564e-01 7.122821128311419558e-01 1.000000000000000000e+01 1.000000000000000000e+00
7.155111311843933564e-01 7.219691678908961574e-01 7.187401495376447569e-01 1.000000000000000000e+01 1.000000000000000000e+00
7.219691678908961574e-01 7.284272045973989584e-01 7.251981862441475579e-01 1.000000000000000000e+01 1.000000000000000000e+00
7.284272045973989584e-01 7.348852413039017595e-01 7.316562229506503590e-01 1.000000000000000000e+01 1.000000000000000000e+00
7.348852413039017595e-01 7.445722963636559610e-01 7.381142596571531600e-01 1.000000000000000000e+01 1.000000000000000000e+00
7.445722963636559610e-01 7.542593514234101626e-01 7.510303330701587621e-01 1.000000000000000000e+01 1.000000000000000000e+00
7.542593514234101626e-01 7.607173881299129636e-01 7.574883697766615631e-01 1.000000000000000000e+01 1.000000000000000000e+00
7.607173881299129636e-01 7.671754248364157647e-01 7.639464064831643642e-01 1.000000000000000000e+01 1.000000000000000000e+00
7.671754248364157647e-01 7.768624798961699662e-01 7.704044431896671652e-01 1.000000000000000000e+01 1.000000000000000000e+00
7.768624798961699662e-01 7.865495349559241678e-01 7.833205166026727673e-01 1.000000000000000000e+01 1.000000000000000000e+00
7.865495349559241678e-01 7.962365900156783693e-01 7.897785533091755683e-01 1.000000000000000000e+01 1.000000000000000000e+00
7.962365900156783693e-01 8.059236450754325709e-01 8.026946267221811704e-01 1.000000000000000000e+01 1.000000000000000000e+00
8.059236450754325709e-01 8.123816817819353719e-01 8.091526634286839714e-01 1.000000000000000000e+01 1.000000000000000000e+00
8.123816817819353719e-01 8.220687368416895735e-01 8.156107001351867725e-01 1.000000000000000000e+01 1.000000000000000000e+00
8.220687368416895735e-01 8.317557919014437751e-01 8.285267735481923745e-01 1.000000000000000000e+01 1.000000000000000000e+00
8.317557919014437751e-01 8.414428469611979766e-01 8.349848102546951756e-01 1.000000000000000000e+01 1.000000000000000000e+00
8.414428469611979766e-01 8.543589203742035787e-01 8.479008836677007777e-01 1.000000000000000000e+01 1.000000000000000000e+00
8.543589203742035787e-01 8.640459754339577803e-01 8.608169570807063797e-01 1.000000000000000000e+01 1.000000000000000000e+00
8.640459754339577803e-01 8.737330304937119818e-01 8.672749937872091808e-01 1.000000000000000000e+01 1.000000000000000000e+00
8.737330304937119818e-01 8.866491039067175839e-01 8.801910672002147829e-01 1.000000000000000000e+01 1.000000000000000000e+00
8.866491039067175839e-01 8.995651773197231860e-01 8.931071406132203849e-01 1.000000000000000000e+01 1.000000000000000000e+00
8.995651773197231860e-01 9.124812507327287880e-01 9.060232140262259870e-01 1.000000000000000000e+01 1.000000000000000000e+00
9.124812507327287880e-01 9.253973241457343901e-01 9.189392874392315891e-01 1.000000000000000000e+01 1.000000000000000000e+00
9.253973241457343901e-01 9.383133975587399922e-01 9.318553608522371912e-01 1.000000000000000000e+01 1.000000000000000000e+00
9.383133975587399922e-01 9.512294709717455943e-01 9.447714342652427932e-01 1.000000000000000000e+01 1.000000000000000000e+00
9.512294709717455943e-01 9.641455443847511964e-01 9.576875076782483953e-01 1.000000000000000000e+01 1.000000000000000000e+00
9.641455443847511964e-01 9.770616177977567984e-01 9.706035810912539974e-01 1.000000000000000000e+01 1.000000000000000000e+00
9.770616177977567984e-01 9.899776912107624005e-01 9.835196545042595995e-01 1.000000000000000000e+01 1.000000000000000000e+00
9.899776912107624005e-01 1.002893764623767892e+00 9.964357279172652015e-01 1.000000000000000000e+01 1.000000000000000000e+00
1.002893764623767892e+00 1.015809838036773494e+00 1.009351801330270693e+00 1.000000000000000000e+01 1.000000000000000000e+00
1.015809838036773494e+00 1.031954929803030607e+00 1.022267874743276295e+00 1.000000000000000000e+01 1.000000000000000000e+00
1.031954929803030607e+00 1.048100021569287721e+00 1.041641984862784920e+00 1.000000000000000000e+01 1.000000000000000000e+00
1.048100021569287721e+00 1.064245113335544612e+00 1.054558058275790522e+00 1.000000000000000000e+01 1.000000000000000000e+00
1.064245113335544612e+00 1.080390205101801504e+00 1.073932168395298703e+00 1.000000000000000000e+01 1.000000000000000000e+00
1.080390205101801504e+00 1.096535296868058618e+00 1.086848241808304305e+00 1.000000000000000000e+01 1.000000000000000000e+00
1.096535296868058618e+00 1.112680388634315731e+00 1.106222351927812930e+00 1.000000000000000000e+01 1.000000000000000000e+00
1.112680388634315731e+00 1.128825480400572623e+00 1.119138425340818532e+00 1.000000000000000000e+01 1.000000000000000000e+00
1.128825480400572623e+00 1.148199590520081026e+00 1.138512535460326713e+00 1.000000000000000000e+01 1.000000000000000000e+00
1.148199590520081026e+00 1.164344682286338140e+00 1.157886645579835339e+00 1.000000000000000000e+01 1.000000000000000000e+00
1.164344682286338140e+00 1.180489774052595031e+00 1.170802718992840941e+00 1.000000000000000000e+01 1.000000000000000000e+00
1.180489774052595031e+00 1.199863884172103434e+00 1.190176829112349122e+00 1.000000000000000000e+01 1.000000000000000000e+00
1.199863884172103434e+00 1.219237994291611837e+00 1.209550939231857747e+00 1.000000000000000000e+01 1.000000000000000000e+00
1.219237994291611837e+00 1.238612104411120240e+00 1.228925049351365928e+00 1.000000000000000000e+01 1.000000000000000000e+00
1.238612104411120240e+00 1.257986214530628644e+00 1.248299159470874553e+00 1.000000000000000000e+01 1.000000000000000000e+00
1.257986214530628644e+00 1.274131306296885535e+00 1.267673269590382734e+00 1.000000000000000000e+01 1.000000000000000000e+00
1.274131306296885535e+00 1.290276398063142649e+00 1.280589343003388336e+00 1.000000000000000000e+01 1.000000000000000000e+00
1.290276398063142649e+00 1.309650508182651052e+00 1.299963453122896961e+00 1.000000000000000000e+01 1.000000000000000000e+00
1.309650508182651052e+00 1.332253636655410745e+00 1.319337563242405142e+00 1.000000000000000000e+01 1.000000000000000000e+00
1.332253636655410745e+00 1.354856765128170659e+00 1.345169710068416347e+00 1.000000000000000000e+01 1.000000000000000000e+00
1.354856765128170659e+00 1.374230875247679062e+00 1.364543820187924972e+00 1.000000000000000000e+01 1.000000000000000000e+00
1.374230875247679062e+00 1.393604985367187465e+00 1.383917930307433153e+00 1.000000000000000000e+01 1.000000000000000000e+00
1.393604985367187465e+00 1.412979095486695869e+00 1.403292040426941778e+00 1.000000000000000000e+01 1.000000000000000000e+00
1.412979095486695869e+00 1.432353205606204272e+00 1.422666150546449959e+00 1.000000000000000000e+01 1.000000000000000000e+00
1.432353205606204272e+00 1.451727315725712675e+00 1.442040260665958584e+00 1.000000000000000000e+01 1.000000000000000000e+00
1.451727315725712675e+00 1.471101425845221078e+00 1.461414370785466765e+00 1.000000000000000000e+01 1.000000000000000000e+00
1.471101425845221078e+00 1.490475535964729481e+00 1.480788480904975390e+00 1.000000000000000000e+01 1.000000000000000000e+00
1.490475535964729481e+00 1.509849646084237884e+00 1.500162591024483572e+00 1.000000000000000000e+01 1.000000000000000000e+00
1.509849646084237884e+00 1.532452774556997799e+00 1.519536701143992197e+00 1.000000000000000000e+01 1.000000000000000000e+00
1.532452774556997799e+00 1.555055903029757491e+00 1.545368847970003401e+00 1.000000000000000000e+01 1.000000000000000000e+00
1.555055903029757491e+00 1.574430013149265895e+00 1.564742958089511582e+00 1.000000000000000000e+01 1.000000000000000000e+00
1.574430013149265895e+00 1.593804123268774298e+00 1.584117068209020207e+00 1.000000000000000000e+01 1.000000000000000000e+00
1.593804123268774298e+00 1.613178233388282701e+00 1.603491178328528388e+00 1.000000000000000000e+01 1.000000000000000000e+00
1.613178233388282701e+00 1.632552343507791104e+00 1.622865288448037013e+00 1.000000000000000000e+01 1.000000000000000000e+00
1.632552343507791104e+00 1.651926453627299507e+00 1.642239398567545194e+00 1.000000000000000000e+01 1.000000000000000000e+00
1.651926453627299507e+00 1.674529582100059422e+00 1.661613508687053820e+00 1.000000000000000000e+01 1.000000000000000000e+00
1.674529582100059422e+00 1.697132710572819114e+00 1.687445655513065024e+00 1.000000000000000000e+01 1.000000000000000000e+00
1.697132710572819114e+00 1.716506820692327517e+00 1.706819765632573205e+00 1.000000000000000000e+01 1.000000000000000000e+00
1.716506820692327517e+00 1.735880930811835920e+00 1.726193875752081830e+00 1.000000000000000000e+01 1.000000000000000000e+00
1.735880930811835920e+00 1.755255040931344324e+00 1.745567985871590011e+00 1.000000000000000000e+01 1.000000000000000000e+00
1.755255040931344324e+00 1.774629151050852727e+00 1.764942095991098636e+00 1.000000000000000000e+01 1.000000000000000000e+00
1.774629151050852727e+00 1.794003261170361130e+00 1.784316206110606817e+00 1.000000000000000000e+01 1.000000000000000000e+00
1.794003261170361130e+00 1.813377371289869533e+00 1.803690316230115442e+00 1.000000000000000000e+01 1.000000000000000000e+00
1.813377371289869533e+00 1.832751481409377936e+00 1.823064426349623623e+00 1.000000000000000000e+01 1.000000000000000000e+00
1.832751481409377936e+00 1.852125591528886339e+00 1.842438536469132249e+00 1.000000000000000000e+01 1.000000000000000000e+00
1.852125591528886339e+00 1.871499701648394742e+00 1.861812646588640430e+00 1.000000000000000000e+01 1.000000000000000000e+00
1.871499701648394742e+00 1.890873811767903145e+00 1.881186756708149055e+00 1.000000000000000000e+01 1.000000000000000000e+00
1.890873811767903145e+00 1.910247921887411549e+00 1.900560866827657236e+00 1.000000000000000000e+01 1.000000000000000000e+00
1.910247921887411549e+00 1.929622032006919952e+00 1.919934976947165861e+00 1.000000000000000000e+01 1.000000000000000000e+00
1.929622032006919952e+00 1.948996142126428355e+00 1.939309087066674042e+00 1.000000000000000000e+01 1.000000000000000000e+00
1.948996142126428355e+00 1.968370252245936758e+00 1.958683197186182667e+00 1.000000000000000000e+01 1.000000000000000000e+00
1.968370252245936758e+00 1.987744362365445161e+00 1.978057307305690848e+00 1.000000000000000000e+01 1.000000000000000000e+00
1.987744362365445161e+00 2.007118472484953564e+00 1.997431417425199474e+00 1.000000000000000000e+01 1.000000000000000000e+00
2.007118472484953564e+00 2.023263564251210234e+00 2.016805527544707655e+00 1.000000000000000000e+01 1.000000000000000000e+00
2.023263564251210234e+00 2.039408656017467791e+00 2.029721600957713257e+00 1.000000000000000000e+01 1.000000000000000000e+00
2.039408656017467791e+00 2.058782766136975972e+00 2.049095711077221882e+00 1.000000000000000000e+01 1.000000000000000000e+00
2.058782766136975972e+00 2.078156876256484153e+00 2.068469821196730063e+00 1.000000000000000000e+01 1.000000000000000000e+00
2.078156876256484153e+00 2.097530986375992779e+00 2.087843931316238688e+00 1.000000000000000000e+01 1.000000000000000000e+00
2.097530986375992779e+00 2.116905096495501404e+00 2.107218041435746869e+00 1.000000000000000000e+01 1.000000000000000000e+00
2.116905096495501404e+00 2.133050188261758073e+00 2.126592151555255494e+00 1.000000000000000000e+01 1.000000000000000000e+00
2.133050188261758073e+00 2.149195280028015187e+00 2.139508224968261096e+00 1.000000000000000000e+01 1.000000000000000000e+00
2.149195280028015187e+00 2.168569390147523812e+00 2.158882335087769277e+00 1.000000000000000000e+01 1.000000000000000000e+00
2.168569390147523812e+00 2.187943500267031993e+00 2.178256445207277903e+00 1.000000000000000000e+01 1.000000000000000000e+00
2.187943500267031993e+00 2.204088592033288663e+00 2.197630555326786084e+00 1.000000000000000000e+01 1.000000000000000000e+00
2.204088592033288663e+00 2.220233683799546220e+00 2.210546628739791686e+00 1.000000000000000000e+01 1.000000000000000000e+00
2.220233683799546220e+00 2.239607793919054401e+00 2.229920738859300311e+00 1.000000000000000000e+01 1.000000000000000000e+00
2.239607793919054401e+00 2.255752885685311071e+00 2.249294848978808492e+00 1.000000000000000000e+01 1.000000000000000000e+00
2.255752885685311071e+00 2.271897977451568629e+00 2.262210922391814094e+00 1.000000000000000000e+01 1.000000000000000000e+00
2.271897977451568629e+00 2.291272087571076810e+00 2.281585032511322719e+00 1.000000000000000000e+01 1.000000000000000000e+00
2.291272087571076810e+00 2.307417179337333479e+00 2.300959142630830900e+00 1.000000000000000000e+01 1.000000000000000000e+00
2.307417179337333479e+00 2.323562271103591037e+00 2.313875216043836502e+00 1.000000000000000000e+01 1.000000000000000000e+00
2.323562271103591037e+00 2.339707362869847707e+00 2.333249326163345128e+00 1.000000000000000000e+01 1.000000000000000000e+00
2.339707362869847707e+00 2.355852454636104820e+00 2.346165399576350730e+00 1.000000000000000000e+01 1.000000000000000000e+00
2.355852454636104820e+00 2.375226564755613445e+00 2.365539509695858911e+00 1.000000000000000000e+01 1.000000000000000000e+00
2.375226564755613445e+00 2.391371656521870115e+00 2.384913619815367536e+00 1.000000000000000000e+01 1.000000000000000000e+00
2.391371656521870115e+00 2.407516748288127229e+00 2.397829693228373138e+00 1.000000000000000000e+01 1.000000000000000000e+00
2.407516748288127229e+00 2.423661840054384342e+00 2.417203803347881319e+00 1.000000000000000000e+01 1.000000000000000000e+00
2.423661840054384342e+00 2.439806931820641012e+00 2.430119876760886921e+00 1.000000000000000000e+01 1.000000000000000000e+00
2.439806931820641012e+00 2.455952023586898569e+00 2.449493986880395546e+00 1.000000000000000000e+01 1.000000000000000000e+00
2.455952023586898569e+00 2.472097115353155239e+00 2.462410060293401148e+00 1.000000000000000000e+01 1.000000000000000000e+00
2.472097115353155239e+00 2.488242207119411908e+00 2.481784170412909329e+00 1.000000000000000000e+01 1.000000000000000000e+00
2.488242207119411908e+00 2.504387298885669466e+00 2.494700243825914932e+00 1.000000000000000000e+01 1.000000000000000000e+00
2.504387298885669466e+00 2.520532390651926136e+00 2.514074353945423557e+00 1.000000000000000000e+01 1.000000000000000000e+00
2.520532390651926136e+00 2.533448464064932182e+00 2.526990427358429159e+00 1.000000000000000000e+01 1.000000000000000000e+00
2.533448464064932182e+00 2.549593555831188851e+00 2.539906500771434761e+00 1.000000000000000000e+01 1.000000000000000000e+00
2.549593555831188851e+00 2.565738647597445521e+00 2.559280610890942942e+00 1.000000000000000000e+01 1.000000000000000000e+00
2.565738647597445521e+00 2.581883739363703079e+00 2.572196684303948544e+00 1.000000000000000000e+01 1.000000000000000000e+00
2.581883739363703079e+00 2.598028831129959748e+00 2.591570794423457169e+00 1.000000000000000000e+01 1.000000000000000000e+00
2.598028831129959748e+00 2.610944904542965794e+00 2.604486867836462771e+00 1.000000000000000000e+01 1.000000000000000000e+00
2.610944904542965794e+00 2.627089996309222464e+00 2.617402941249468373e+00 1.000000000000000000e+01 1.000000000000000000e+00
2.627089996309222464e+00 2.643235088075479577e+00 2.636777051368976554e+00 1.000000000000000000e+01 1.000000000000000000e+00
2.643235088075479577e+00 2.656151161488485180e+00 2.649693124781982601e+00 1.000000000000000000e+01 1.000000000000000000e+00
2.656151161488485180e+00 2.672296253254741849e+00 2.662609198194987759e+00 1.000000000000000000e+01 1.000000000000000000e+00
2.672296253254741849e+00 2.688441345020999407e+00 2.681983308314496384e+00 1.000000000000000000e+01 1.000000000000000000e+00
2.688441345020999407e+00 2.701357418434004565e+00 2.694899381727501986e+00 1.000000000000000000e+01 1.000000000000000000e+00
2.701357418434004565e+00 2.717502510200262122e+00 2.707815455140507588e+00 1.000000000000000000e+01 1.000000000000000000e+00
2.717502510200262122e+00 2.733647601966518792e+00 2.727189565260016213e+00 1.000000000000000000e+01 1.000000000000000000e+00
2.733647601966518792e+00 2.746563675379524394e+00 2.740105638673021371e+00 1.000000000000000000e+01 1.000000000000000000e+00
2.746563675379524394e+00 2.759479748792529996e+00 2.753021712086027417e+00 1.000000000000000000e+01 1.000000000000000000e+00
2.759479748792529996e+00 2.775624840558786666e+00 2.765937785499032575e+00 1.000000000000000000e+01 1.000000000000000000e+00
2.775624840558786666e+00 2.791769932325044223e+00 2.785311895618541200e+00 1.000000000000000000e+01 1.000000000000000000e+00
2.791769932325044223e+00 2.804686005738049381e+00 2.798227969031546802e+00 1.000000000000000000e+01 1.000000000000000000e+00
2.804686005738049381e+00 2.817602079151055428e+00 2.811144042444552404e+00 1.000000000000000000e+01 1.000000000000000000e+00
2.817602079151055428e+00 2.833747170917312097e+00 2.824060115857558007e+00 1.000000000000000000e+01 1.000000000000000000e+00
2.833747170917312097e+00 2.849892262683569211e+00 2.843434225977066188e+00 1.000000000000000000e+01 1.000000000000000000e+00
2.849892262683569211e+00 2.862808336096574813e+00 2.856350299390072234e+00 1.000000000000000000e+01 1.000000000000000000e+00
2.862808336096574813e+00 2.875724409509580415e+00 2.869266372803077392e+00 1.000000000000000000e+01 1.000000000000000000e+00
2.875724409509580415e+00 2.888640482922586017e+00 2.882182446216083438e+00 1.000000000000000000e+01 1.000000000000000000e+00
2.888640482922586017e+00 2.901556556335591619e+00 2.895098519629088596e+00 1.000000000000000000e+01 1.000000000000000000e+00
2.901556556335591619e+00 2.914472629748597221e+00 2.908014593042094642e+00 1.000000000000000000e+01 1.000000000000000000e+00
2.914472629748597221e+00 2.930617721514853891e+00 2.920930666455099800e+00 1.000000000000000000e+01 1.000000000000000000e+00
2.930617721514853891e+00 2.946762813281111448e+00 2.940304776574608425e+00 1.000000000000000000e+01 1.000000000000000000e+00
2.946762813281111448e+00 2.959678886694116606e+00 2.953220849987614027e+00 1.000000000000000000e+01 1.000000000000000000e+00
